#XMuDat: List of absorber materials ------- 31.01.2013 / 12:02:40
#==============================================================
#Absorber #1: 
#--------------------------------------------------------------
#composition:
#component                                    rel. Weight
#MOLYBDENUM                                   1
# 
#Elemental distribution:
# Z   Element                                 Weight fraction
#42   Mo  (Molybdenum)                        1
# 
#Electrons/g:       2,64E+23
#Calc. Electr./cm³: 2,69E+24
#Effective Z:       42,00
# 
#XMuDat: Photon attenuation coefficients -- 31.01.2013 / 12:02:40
#==============================================================
#Absorber #1:  
#  Coeff. type: attenuation-total
#  Data source: J M Boone, A E Chavez; Med Phys 23(1996)1997
# 
#Photon attenuation coefficients in units cm²/g, 
#  photon energies in units keV:
# 
#Energy    #1        #2        #3        #4        #5        #6
#--------------------------------------------------------------
1.00E+0   4.939E+3                                           
1.01E+0   4.824E+3                                           
1.02E+0   4.713E+3                                           
1.03E+0   4.605E+3                                           
1.04E+0   4.501E+3                                           
1.05E+0   4.400E+3                                           
1.06E+0   4.302E+3                                           
1.07E+0   4.208E+3                                           
1.08E+0   4.116E+3                                           
1.09E+0   4.027E+3                                           
1.10E+0   3.941E+3                                           
1.11E+0   3.859E+3                                           
1.12E+0   3.779E+3                                           
1.13E+0   3.701E+3                                           
1.14E+0   3.626E+3                                           
1.15E+0   3.553E+3                                           
1.16E+0   3.482E+3                                           
1.17E+0   3.413E+3                                           
1.18E+0   3.346E+3                                           
1.19E+0   3.281E+3                                           
1.20E+0   3.218E+3                                           
1.21E+0   3.156E+3                                           
1.22E+0   3.096E+3                                           
1.23E+0   3.038E+3                                           
1.24E+0   2.981E+3                                           
1.25E+0   2.926E+3                                           
1.26E+0   2.873E+3                                           
1.27E+0   2.821E+3                                           
1.28E+0   2.771E+3                                           
1.29E+0   2.722E+3                                           
1.30E+0   2.674E+3                                           
1.31E+0   2.627E+3                                           
1.32E+0   2.581E+3                                           
1.33E+0   2.537E+3                                           
1.34E+0   2.494E+3                                           
1.35E+0   2.451E+3                                           
1.36E+0   2.410E+3                                           
1.37E+0   2.370E+3                                           
1.38E+0   2.330E+3                                           
1.39E+0   2.292E+3                                           
1.40E+0   2.255E+3                                           
1.41E+0   2.217E+3                                           
1.42E+0   2.179E+3                                           
1.43E+0   2.143E+3                                           
1.44E+0   2.108E+3                                           
1.45E+0   2.073E+3                                           
1.46E+0   2.040E+3                                           
1.47E+0   2.007E+3                                           
1.48E+0   1.975E+3                                           
1.49E+0   1.943E+3                                           
1.50E+0   1.912E+3                                           
1.51E+0   1.882E+3                                           
1.52E+0   1.853E+3                                           
1.53E+0   1.824E+3                                           
1.54E+0   1.796E+3                                           
1.55E+0   1.768E+3                                           
1.56E+0   1.741E+3                                           
1.57E+0   1.715E+3                                           
1.58E+0   1.689E+3                                           
1.59E+0   1.664E+3                                           
1.60E+0   1.639E+3                                           
1.61E+0   1.615E+3                                           
1.62E+0   1.590E+3                                           
1.63E+0   1.567E+3                                           
1.64E+0   1.544E+3                                           
1.65E+0   1.521E+3                                           
1.66E+0   1.499E+3                                           
1.67E+0   1.477E+3                                           
1.68E+0   1.456E+3                                           
1.69E+0   1.435E+3                                           
1.70E+0   1.414E+3                                           
1.71E+0   1.394E+3                                           
1.72E+0   1.375E+3                                           
1.73E+0   1.355E+3                                           
1.74E+0   1.336E+3                                           
1.75E+0   1.318E+3                                           
1.76E+0   1.300E+3                                           
1.77E+0   1.282E+3                                           
1.78E+0   1.265E+3                                           
1.79E+0   1.247E+3                                           
1.80E+0   1.231E+3                                           
1.81E+0   1.214E+3                                           
1.82E+0   1.198E+3                                           
1.83E+0   1.183E+3                                           
1.84E+0   1.167E+3                                           
1.85E+0   1.152E+3                                           
1.86E+0   1.138E+3                                           
1.87E+0   1.123E+3                                           
1.88E+0   1.109E+3                                           
1.89E+0   1.095E+3                                           
1.90E+0   1.081E+3                                           
1.91E+0   1.067E+3                                           
1.92E+0   1.054E+3                                           
1.93E+0   1.041E+3                                           
1.94E+0   1.028E+3                                           
1.95E+0   1.016E+3                                           
1.96E+0   1.003E+3                                           
1.97E+0   9.912E+2                                           
1.98E+0   9.792E+2                                           
1.99E+0   9.675E+2                                           
2.00E+0   9.559E+2                                           
2.01E+0   9.439E+2                                           
2.02E+0   9.320E+2                                           
2.03E+0   9.204E+2                                           
2.04E+0   9.089E+2                                           
2.05E+0   8.977E+2                                           
2.06E+0   8.866E+2                                           
2.07E+0   8.758E+2                                           
2.08E+0   8.651E+2                                           
2.09E+0   8.546E+2                                           
2.10E+0   8.443E+2                                           
2.11E+0   8.341E+2                                           
2.12E+0   8.242E+2                                           
2.13E+0   8.144E+2                                           
2.14E+0   8.047E+2                                           
2.15E+0   7.952E+2                                           
2.16E+0   7.859E+2                                           
2.17E+0   7.767E+2                                           
2.18E+0   7.677E+2                                           
2.19E+0   7.588E+2                                           
2.20E+0   7.500E+2                                           
2.21E+0   7.420E+2                                           
2.22E+0   7.341E+2                                           
2.23E+0   7.263E+2                                           
2.24E+0   7.186E+2                                           
2.25E+0   7.111E+2                                           
2.26E+0   7.036E+2                                           
2.27E+0   6.963E+2                                           
2.28E+0   6.890E+2                                           
2.29E+0   6.819E+2                                           
2.30E+0   6.749E+2                                           
2.31E+0   6.680E+2                                           
2.32E+0   6.611E+2                                           
2.33E+0   6.544E+2                                           
2.34E+0   6.478E+2                                           
2.35E+0   6.412E+2                                           
2.36E+0   6.345E+2                                           
2.37E+0   6.279E+2                                           
2.38E+0   6.214E+2                                           
2.39E+0   6.151E+2                                           
2.40E+0   6.087E+2                                           
2.41E+0   6.019E+2                                           
2.42E+0   5.952E+2                                           
2.43E+0   5.886E+2                                           
2.44E+0   5.821E+2                                           
2.45E+0   5.757E+2                                           
2.46E+0   5.693E+2                                           
2.47E+0   5.628E+2                                           
2.48E+0   5.562E+2                                           
2.49E+0   5.497E+2                                           
2.50E+0   5.431E+2                                           
2.51E+0   5.385E+2                                           
2.52E+0   5.340E+2                                           
2.53E+0   1.945E+3                                           
2.54E+0   1.925E+3                                           
2.55E+0   1.905E+3                                           
2.56E+0   1.886E+3                                           
2.57E+0   1.866E+3                                           
2.58E+0   1.846E+3                                           
2.59E+0   1.826E+3                                           
2.60E+0   1.806E+3                                           
2.61E+0   1.787E+3                                           
2.62E+0   1.767E+3                                           
2.63E+0   2.425E+3                                           
2.64E+0   2.399E+3                                           
2.65E+0   2.376E+3                                           
2.66E+0   2.354E+3                                           
2.67E+0   2.333E+3                                           
2.68E+0   2.312E+3                                           
2.69E+0   2.292E+3                                           
2.70E+0   2.272E+3                                           
2.71E+0   2.252E+3                                           
2.72E+0   2.232E+3                                           
2.73E+0   2.210E+3                                           
2.74E+0   2.189E+3                                           
2.75E+0   2.168E+3                                           
2.76E+0   2.147E+3                                           
2.77E+0   2.127E+3                                           
2.78E+0   2.107E+3                                           
2.79E+0   2.087E+3                                           
2.80E+0   2.067E+3                                           
2.81E+0   2.051E+3                                           
2.82E+0   2.034E+3                                           
2.83E+0   2.017E+3                                           
2.84E+0   2.001E+3                                           
2.85E+0   2.268E+3                                           
2.86E+0   2.251E+3                                           
2.87E+0   2.233E+3                                           
2.88E+0   2.216E+3                                           
2.89E+0   2.198E+3                                           
2.90E+0   2.180E+3                                           
2.91E+0   2.162E+3                                           
2.92E+0   2.144E+3                                           
2.93E+0   2.126E+3                                           
2.94E+0   2.109E+3                                           
2.95E+0   2.092E+3                                           
2.96E+0   2.075E+3                                           
2.97E+0   2.058E+3                                           
2.98E+0   2.042E+3                                           
2.99E+0   2.025E+3                                           
3.00E+0   2.009E+3                                           
3.01E+0   1.993E+3                                           
3.02E+0   1.978E+3                                           
3.03E+0   1.962E+3                                           
3.04E+0   1.947E+3                                           
3.05E+0   1.932E+3                                           
3.06E+0   1.917E+3                                           
3.07E+0   1.902E+3                                           
3.08E+0   1.886E+3                                           
3.09E+0   1.870E+3                                           
3.10E+0   1.854E+3                                           
3.11E+0   1.839E+3                                           
3.12E+0   1.823E+3                                           
3.13E+0   1.808E+3                                           
3.14E+0   1.793E+3                                           
3.15E+0   1.778E+3                                           
3.16E+0   1.763E+3                                           
3.17E+0   1.748E+3                                           
3.18E+0   1.734E+3                                           
3.19E+0   1.719E+3                                           
3.20E+0   1.705E+3                                           
3.21E+0   1.693E+3                                           
3.22E+0   1.680E+3                                           
3.23E+0   1.668E+3                                           
3.24E+0   1.656E+3                                           
3.25E+0   1.644E+3                                           
3.26E+0   1.632E+3                                           
3.27E+0   1.621E+3                                           
3.28E+0   1.609E+3                                           
3.29E+0   1.598E+3                                           
3.30E+0   1.586E+3                                           
3.31E+0   1.575E+3                                           
3.32E+0   1.564E+3                                           
3.33E+0   1.553E+3                                           
3.34E+0   1.542E+3                                           
3.35E+0   1.531E+3                                           
3.36E+0   1.520E+3                                           
3.37E+0   1.510E+3                                           
3.38E+0   1.498E+3                                           
3.39E+0   1.486E+3                                           
3.40E+0   1.474E+3                                           
3.41E+0   1.462E+3                                           
3.42E+0   1.450E+3                                           
3.43E+0   1.439E+3                                           
3.44E+0   1.427E+3                                           
3.45E+0   1.416E+3                                           
3.46E+0   1.405E+3                                           
3.47E+0   1.394E+3                                           
3.48E+0   1.383E+3                                           
3.49E+0   1.371E+3                                           
3.50E+0   1.360E+3                                           
3.51E+0   1.350E+3                                           
3.52E+0   1.340E+3                                           
3.53E+0   1.331E+3                                           
3.54E+0   1.321E+3                                           
3.55E+0   1.312E+3                                           
3.56E+0   1.302E+3                                           
3.57E+0   1.293E+3                                           
3.58E+0   1.284E+3                                           
3.59E+0   1.275E+3                                           
3.60E+0   1.266E+3                                           
3.61E+0   1.257E+3                                           
3.62E+0   1.248E+3                                           
3.63E+0   1.239E+3                                           
3.64E+0   1.231E+3                                           
3.65E+0   1.222E+3                                           
3.66E+0   1.213E+3                                           
3.67E+0   1.205E+3                                           
3.68E+0   1.197E+3                                           
3.69E+0   1.189E+3                                           
3.70E+0   1.180E+3                                           
3.71E+0   1.172E+3                                           
3.72E+0   1.164E+3                                           
3.73E+0   1.156E+3                                           
3.74E+0   1.148E+3                                           
3.75E+0   1.141E+3                                           
3.76E+0   1.133E+3                                           
3.77E+0   1.125E+3                                           
3.78E+0   1.118E+3                                           
3.79E+0   1.110E+3                                           
3.80E+0   1.103E+3                                           
3.81E+0   1.095E+3                                           
3.82E+0   1.088E+3                                           
3.83E+0   1.081E+3                                           
3.84E+0   1.074E+3                                           
3.85E+0   1.067E+3                                           
3.86E+0   1.060E+3                                           
3.87E+0   1.053E+3                                           
3.88E+0   1.046E+3                                           
3.89E+0   1.039E+3                                           
3.90E+0   1.032E+3                                           
3.91E+0   1.025E+3                                           
3.92E+0   1.019E+3                                           
3.93E+0   1.012E+3                                           
3.94E+0   1.006E+3                                           
3.95E+0   9.991E+2                                           
3.96E+0   9.927E+2                                           
3.97E+0   9.864E+2                                           
3.98E+0   9.794E+2                                           
3.99E+0   9.722E+2                                           
